#"Time (ps)","Potential Energy (kJ/mole)","Kinetic Energy (kJ/mole)","Temperature (K)","Speed (ns/day)"
7.499999999999936,-2863.1822509765625,2646.927734375,280.7338908652456,0
15.00000000000019,-2624.317428588867,2436.0322265625,258.36625471662035,5.01e+03
22.500000000000473,-2408.9617767333984,2203.841796875,233.7400732378742,5.25e+03
30.000000000000757,-2207.910499572754,2028.6156005859375,215.15553417891078,5.59e+03
37.50000000000104,-2129.824089050293,1964.32763671875,208.33713487096693,5.86e+03
45.00000000000132,-2081.6450576782227,1940.7138671875,205.83265191421242,6.04e+03
52.500000000001606,-2018.789493560791,1872.177001953125,198.56361294685422,6.2e+03
60.00000000000189,-1984.4299850463867,1885.807373046875,200.00925389178508,6.31e+03
67.50000000000217,-1937.3705863952637,1849.633544921875,196.17264763119908,6.39e+03
75.00000000000246,-1899.397533416748,1832.7109375,194.37783118667312,6.31e+03
82.50000000000274,-1866.0450859069824,1837.140869140625,194.84767096718127,6.38e+03
90.00000000000303,-1842.196590423584,1844.5953369140625,195.6382938901984,6.45e+03
97.50000000000331,-1779.9099502563477,1826.2467041015625,193.6922327965709,6.52e+03
105.0000000000036,-1750.5248947143555,1802.4365234375,191.16691842050426,6.59e+03
112.50000000000388,-1715.861457824707,1807.1590576171875,191.6677917075949,6.6e+03
120.00000000000416,-1690.2057418823242,1812.412353515625,192.22495773002996,6.63e+03
127.50000000000445,-1674.0422630310059,1837.584228515625,194.89469378566588,6.65e+03
134.9999999999981,-1649.770664215088,1839.754150390625,195.1248363025662,6.69e+03
142.49999999999127,-1627.752586364746,1851.04931640625,196.32280474815508,6.69e+03
149.99999999998445,-1586.852310180664,1825.510498046875,193.6141505778813,6.67e+03
157.49999999997763,-1549.3738708496094,1821.485107421875,193.18721652987807,6.71e+03
164.9999999999708,-1542.3260288238525,1839.9268798828125,195.14315604049455,6.77e+03
172.499999999964,-1495.8317756652832,1821.216064453125,193.15868175786818,6.83e+03
179.99999999995717,-1477.9901695251465,1818.20947265625,192.83980179661395,6.89e+03
187.49999999995035,-1447.791202545166,1818.7852783203125,192.90087190531213,6.95e+03
194.99999999994353,-1433.2011985778809,1836.015380859375,194.72830136739387,6.99e+03
202.4999999999367,-1416.4173374176025,1842.1348876953125,195.37733796250697,7.04e+03
209.99999999992988,-1404.0841617584229,1836.8587646484375,194.81775088636687,7.05e+03
217.49999999992306,-1364.8055591583252,1831.9993896484375,194.3023642238574,7.1e+03
224.99999999991624,-1341.5702095031738,1828.0921630859375,193.88796268915073,7.09e+03
232.49999999990942,-1301.8832321166992,1808.4598388671875,191.80575292834703,7.13e+03
239.9999999999026,-1305.564998626709,1843.249755859375,195.49558118971504,7.17e+03
247.49999999989578,-1293.3302154541016,1846.142578125,195.80239472287798,7.2e+03
254.99999999988896,-1274.1708679199219,1853.838134765625,196.61858759812722,7.23e+03
262.49999999988216,-1262.081340789795,1869.8033447265625,198.31186220196633,7.26e+03
269.99999999987534,-1227.6466083526611,1856.8603515625,196.93912475122232,7.29e+03
277.4999999998685,-1198.4096450805664,1879.1982421875,199.30828763672108,7.3e+03
284.9999999998617,-1196.919599533081,1880.421875,199.43806647275895,7.32e+03
292.4999999998549,-1185.5420188903809,1895.2952880859375,201.01554479671748,7.33e+03
299.99999999984806,-1195.465690612793,1904.690185546875,202.01197023147225,7.32e+03
307.49999999984124,-1132.969383239746,1868.813720703125,198.2069024031077,7.34e+03
314.9999999998344,-1136.5515022277832,1878.107666015625,199.19262082495308,7.36e+03
322.4999999998276,-1118.690191268921,1895.952392578125,201.08523748171268,7.37e+03
329.9999999998208,-1118.199462890625,1919.0765380859375,203.53779077851627,7.4e+03
337.49999999981395,-1112.240333557129,1933.12548828125,205.02782633924662,7.42e+03
344.99999999980713,-1088.9140014648438,1926.4176025390625,204.31638611387586,7.44e+03
352.4999999998003,-1084.9510250091553,1936.642333984375,205.40082397155416,7.46e+03
359.9999999997935,-1053.6045227050781,1911.1043701171875,202.69226042895917,7.48e+03
367.49999999978667,-1021.4677295684814,1879.8369140625,199.3760253532165,7.49e+03
374.99999999977985,-1014.8315410614014,1872.572509765625,198.60556061532614,7.49e+03
382.499999999773,-1009.8223495483398,1893.6171875,200.83756498237068,7.51e+03
389.9999999997662,-1005.2353992462158,1906.1490478515625,202.1666975728019,7.53e+03
397.4999999997594,-991.7041778564453,1905.589599609375,202.10736233681212,7.55e+03
404.99999999975256,-955.635347366333,1897.1475830078125,201.2119997107277,7.58e+03
412.49999999974574,-954.5686359405518,1936.6640625,205.40312850395784,7.59e+03
419.9999999997389,-946.6118059158325,1960.3516845703125,207.9154442815227,7.62e+03
427.4999999997321,-926.2963733673096,1958.6903076171875,207.73923818031807,7.64e+03
434.9999999997253,-918.0695362091064,1967.95556640625,208.7219141015181,7.67e+03
442.49999999971845,-910.450288772583,1977.73046875,209.7586429597152,7.7e+03
449.99999999971163,-902.8344802856445,1954.61767578125,207.3072937163585,7.7e+03
457.4999999997048,-864.4459686279297,1922.4742431640625,203.8981523230372,7.72e+03
464.999999999698,-860.4765329360962,1923.642333984375,204.02204035995322,7.74e+03
472.49999999969117,-841.247504234314,1928.282470703125,204.51417454944553,7.75e+03
479.99999999968435,-831.7456340789795,1919.0394287109375,203.5338549478942,7.78e+03
487.4999999996775,-817.9364185333252,1920.487548828125,203.68744296983326,7.8e+03
494.9999999996707,-822.0499954223633,1917.440185546875,203.3642387736193,7.83e+03
502.4999999996639,-812.5869045257568,1940.797607421875,205.84153342673457,7.86e+03
509.99999999965706,-792.9904708862305,1945.92919921875,206.38579147834665,7.89e+03
517.4999999996503,-794.8352737426758,1960.554931640625,207.93700072226522,7.91e+03
524.9999999996435,-782.6707134246826,1980.0638427734375,210.00612125688832,7.92e+03
532.4999999996367,-766.9558258056641,1974.46240234375,209.41203092874898,7.94e+03
539.9999999996298,-745.259822845459,1956.7672119140625,207.53527411577892,7.97e+03
547.499999999623,-739.7183418273926,1974.16455078125,209.38044070928245,7.99e+03
554.9999999996162,-724.0110874176025,1980.094482421875,210.0093709065138,8.02e+03
562.4999999996094,-728.202241897583,1997.772216796875,211.8842763254741,8.05e+03
569.9999999996026,-696.911865234375,2006.707763671875,212.83198290946962,8.07e+03
577.4999999995957,-684.0768098831177,2006.820556640625,212.84394576307088,8.1e+03
584.9999999995889,-681.1952629089355,2016.428466796875,213.8629633834687,8.12e+03
592.4999999995821,-677.1091499328613,2046.6173095703125,217.06480043494656,8.14e+03
599.9999999995753,-652.6013050079346,2036.541015625,215.99610589975654,8.15e+03
607.4999999995684,-634.89794921875,2036.237060546875,215.96386833972716,8.17e+03
614.9999999995616,-640.6526470184326,2059.58447265625,218.4401013543194,8.2e+03
622.4999999995548,-638.794111251831,2063.397216796875,218.84448205711334,8.22e+03
629.999999999548,-622.9828815460205,2077.7021484375,220.36166708104912,8.25e+03
637.4999999995412,-606.5889101028442,2069.103515625,219.4496936961223,8.27e+03
644.9999999995343,-600.559253692627,2082.028076171875,220.82047617836653,8.3e+03
652.4999999995275,-598.0576333999634,2092.140625,221.89301591649982,8.32e+03
659.9999999995207,-585.7138080596924,2096.632080078125,222.3693808898814,8.34e+03
667.4999999995139,-568.7474308013916,2099.15380859375,222.63683611682373,8.37e+03
674.999999999507,-563.9441285133362,2087.642822265625,221.4159777089329,8.38e+03
682.4999999995002,-541.4712176322937,2076.6044921875,220.24524935422826,8.39e+03
689.9999999994934,-525.2855968475342,2050.13720703125,217.4381217375355,8.41e+03
697.4999999994866,-530.3270354270935,2080.4345703125,220.65146850422065,8.43e+03
704.9999999994798,-533.3199963569641,2091.20166015625,221.79342904431275,8.45e+03
712.499999999473,-504.91434812545776,2065.550537109375,219.07286380768275,8.47e+03
719.9999999994661,-488.31985330581665,2077.6240234375,220.3533811218448,8.48e+03
727.4999999994593,-491.0136082172394,2087.126708984375,221.36123859093925,8.5e+03
734.9999999994525,-513.3382551670074,2138.938720703125,226.8564349480075,8.51e+03
742.4999999994457,-491.24183988571167,2101.8505859375,222.9228570711083,8.53e+03
749.9999999994388,-478.0980226993561,2059.32666015625,218.4127576889451,8.53e+03
757.499999999432,-469.2840037345886,2071.75634765625,219.7310537983544,8.55e+03
764.9999999994252,-457.57260060310364,2078.580078125,220.4547805476078,8.56e+03
772.4999999994184,-454.2447683811188,2099.679443359375,222.6925850860954,8.58e+03
779.9999999994116,-436.3429329395294,2104.23388671875,223.17563061408543,8.6e+03
787.4999999994047,-422.4862627983093,2109.0625,223.68775468015824,8.62e+03
794.9999999993979,-427.2268154621124,2129.9091796875,225.89875931934426,8.64e+03
802.4999999993911,-417.5648603439331,2148.50732421875,227.87128369518064,8.65e+03
809.9999999993843,-415.4548087120056,2147.86083984375,227.80271738276477,8.67e+03
817.4999999993775,-389.48268485069275,2135.462890625,226.48778744428225,8.68e+03
824.9999999993706,-390.5585870742798,2144.44677734375,227.44062096553543,8.69e+03
832.4999999993638,-375.90542697906494,2144.1806640625,227.4123969169957,8.7e+03
839.999999999357,-404.7089014053345,2180.65771484375,231.28116305674354,8.71e+03
847.4999999993502,-383.3301405906677,2161.285400390625,229.22653000391674,8.73e+03
854.9999999993433,-374.584242105484,2176.060791015625,230.7936120384361,8.74e+03
862.4999999993365,-358.1827096939087,2190.23388671875,232.2968145062146,8.75e+03
869.9999999993297,-345.7875301837921,2196.48291015625,232.95958766807112,8.77e+03
877.4999999993229,-339.31317710876465,2191.03857421875,232.3821598860192,8.78e+03
884.9999999993161,-353.74226784706116,2224.7734375,235.96008885769498,8.79e+03
892.4999999993092,-347.05755710601807,2228.05517578125,236.30815093152196,8.8e+03
899.9999999993024,-343.47372102737427,2250.40869140625,238.67897100886157,8.79e+03
907.4999999992956,-330.2982678413391,2240.08203125,237.5837225637839,8.8e+03
914.9999999992888,-320.2971134185791,2239.7509765625,237.54861081165555,8.82e+03
922.499999999282,-324.2468671798706,2240.99853515625,237.68092722269972,8.83e+03
929.9999999992751,-320.96631240844727,2230.98681640625,236.61908155066456,8.84e+03
937.4999999992683,-311.09559667110443,2220.2939453125,235.48499267181654,8.86e+03
944.9999999992615,-317.7925171852112,2246.9013671875,238.3069832278321,8.87e+03
952.4999999992547,-321.331116437912,2260.97509765625,239.79964699124753,8.88e+03
959.9999999992478,-303.36971139907837,2265.81787109375,240.3132728874261,8.89e+03
967.499999999241,-290.8808560371399,2266.613037109375,240.3976084159527,8.91e+03
974.9999999992342,-295.6164855957031,2295.42822265625,243.45375500035814,8.9e+03
982.4999999992274,-282.1157817840576,2339.49560546875,248.1275538640519,8.9e+03
989.9999999992206,-263.5108299255371,2330.567626953125,247.1806499823543,8.91e+03
997.4999999992137,-286.54789876937866,2348.05078125,249.03491818417135,8.92e+03
1004.9999999992069,-266.18578600883484,2358.37890625,250.13032199098407,8.93e+03
1012.4999999992001,-268.82853531837463,2352.64306640625,249.521977223651,8.94e+03
1019.9999999991933,-266.6945037841797,2345.5947265625,248.7744283416851,8.95e+03
1027.499999999213,-252.0534098148346,2376.369140625,252.0383712467617,8.96e+03
1034.999999999263,-245.27180182933807,2381.555908203125,252.58848125706186,8.97e+03
1042.499999999313,-237.06722450256348,2381.3037109375,252.56173314500535,8.98e+03
1049.9999999993631,-260.6673023700714,2405.31787109375,255.1086816426821,8.97e+03
1057.4999999994131,-248.133850812912,2404.57470703125,255.02986145575085,8.98e+03
1064.9999999994632,-244.54473876953125,2413.9111328125,256.0200853679136,8.99e+03
1072.4999999995132,-225.89186596870422,2402.465087890625,254.80611466361137,9e+03
1079.9999999995632,-233.31697702407837,2426.2451171875,257.3282311772976,9.01e+03
1087.4999999996132,-227.3890504837036,2418.691162109375,256.5270566031062,9.02e+03
1094.9999999996633,-224.50416088104248,2420.53955078125,256.7230972191562,9.03e+03
1102.4999999997133,-222.0803598165512,2418.571044921875,256.51431694082953,9.04e+03
1109.9999999997633,-198.27766275405884,2395.8701171875,254.10665023865315,9.05e+03
1117.4999999998133,-206.24840927124023,2381.2568359375,252.55676156948275,9.04e+03
1124.9999999998633,-197.51841521263123,2382.7919921875,252.71958066784788,9.04e+03
1132.4999999999134,-191.1953809261322,2379.746337890625,252.3965577269915,9.04e+03
1139.9999999999634,-185.4523868560791,2342.7197265625,248.4695050429657,9.05e+03
1147.5000000000134,-205.71532940864563,2384.306640625,252.8802247019219,9.06e+03
1155.0000000000634,-211.69918060302734,2423.8564453125,257.07488797462514,9.06e+03
1162.5000000001135,-199.10529708862305,2407.4208984375,255.3317293070137,9.06e+03
1170.0000000001635,-188.1699652671814,2375.94970703125,251.99388600328348,9.07e+03
1177.5000000002135,-195.14578026533127,2386.88037109375,253.15319527045966,9.07e+03
1185.0000000002635,-196.96870851516724,2399.45751953125,254.4871311278671,9.08e+03
1192.5000000003135,-187.37979578971863,2401.8330078125,254.7390760749238,9.08e+03
1200.0000000003636,-186.41337609291077,2406.97119140625,255.2840332543438,9.08e+03
1207.5000000004136,-177.00141561031342,2400.37451171875,254.58438757402797,9.09e+03
1215.0000000004636,-167.47005355358124,2405.1259765625,255.08832925538644,9.1e+03
1222.5000000005136,-176.32274866104126,2409.5029296875,255.55255011980915,9.11e+03
1230.0000000005637,-176.58563888072968,2417.24609375,256.37379225144855,9.12e+03
1237.5000000006137,-185.08448332548141,2449.696044921875,259.81544308783555,9.13e+03
1245.0000000006637,-166.96888625621796,2457.587158203125,260.6523767547182,9.14e+03
1252.5000000007137,-156.99821132421494,2441.40576171875,258.9361733481433,9.15e+03
1260.0000000007637,-161.48213386535645,2467.16357421875,261.66805409781176,9.16e+03
1267.5000000008138,-159.98087763786316,2480.216064453125,263.05240483825304,9.17e+03
1275.0000000008638,-163.43890810012817,2474.99169921875,262.49830721008584,9.17e+03
1282.5000000009138,-151.23647570610046,2474.896484375,262.48820869730554,9.18e+03
1290.0000000009638,-140.73699164390564,2430.2451171875,257.75247228855943,9.18e+03
1297.5000000010139,-127.05260956287384,2405.3251953125,255.10945845135745,9.19e+03
1305.0000000010639,-131.97712421417236,2419.2470703125,256.58601638156955,9.2e+03
1312.500000001114,-120.90272498130798,2384.35986328125,252.88586951162983,9.2e+03
1320.000000001164,-131.28212547302246,2409.04833984375,255.50433619468893,9.21e+03
1327.500000001214,-137.69820141792297,2409.28125,255.52903871056688,9.22e+03
1335.000000001264,-133.54986202716827,2412.287353515625,255.84786688457606,9.22e+03
1342.500000001314,-129.7003345489502,2418.673828125,256.52521815590774,9.23e+03
1350.000000001364,-142.91682314872742,2453.604248046875,260.22994819703234,9.22e+03
1357.500000001414,-135.37698483467102,2477.763427734375,262.79227750648204,9.22e+03
1365.000000001464,-125.93404936790466,2454.56103515625,260.33142530366285,9.23e+03
1372.500000001514,-118.65764093399048,2471.7490234375,262.154388115861,9.24e+03
1380.000000001564,-115.57848572731018,2453.651611328125,260.23497155979993,9.25e+03
1387.5000000016141,-100.99366039037704,2434.105712890625,258.161928141366,9.26e+03
1395.0000000016641,-107.55919933319092,2436.0361328125,258.36666901458057,9.26e+03
1402.5000000017142,-113.06380367279053,2450.427734375,259.89304627450866,9.27e+03
1410.0000000017642,-105.20409715175629,2465.77978515625,261.521289045405,9.27e+03
1417.5000000018142,-87.09506332874298,2456.759521484375,260.5645973743973,9.28e+03
1425.0000000018642,-108.55300617218018,2483.11181640625,263.3595290948861,9.27e+03
1432.5000000019143,-114.06337630748749,2498.68115234375,265.01081718981953,9.28e+03
1440.0000000019643,-109.02868616580963,2496.719970703125,264.8028137201683,9.28e+03
1447.5000000020143,-100.6233401298523,2496.7197265625,264.80278782654574,9.29e+03
1455.0000000020643,-94.60661280155182,2487.2919921875,263.80287969956294,9.29e+03
1462.5000000021143,-74.76500606536865,2494.177734375,264.53318342893476,9.3e+03
1470.0000000021644,-81.7050244808197,2494.01513671875,264.51593827634076,9.3e+03
1477.5000000022144,-81.52875828742981,2505.501708984375,265.73420732198025,9.31e+03
1485.0000000022644,-96.69368124008179,2537.98681640625,269.1795868400093,9.31e+03
1492.5000000023144,-85.79497474431992,2538.97802734375,269.2847149474142,9.31e+03
1500.0000000023645,-73.61007952690125,2546.53515625,270.0862261386983,9.3e+03
1507.5000000024145,-92.15845489501953,2582.80615234375,273.9331380610447,9.31e+03
1515.0000000024645,-83.7301322221756,2557.9814453125,271.3002227366231,9.31e+03
1522.5000000025145,-96.79993855953217,2575.179443359375,273.1242471873442,9.31e+03
1530.0000000025645,-84.20142811536789,2572.35595703125,272.82478744297515,9.31e+03
1537.5000000026146,-82.8599865436554,2573.216064453125,272.9160106750904,9.31e+03
1545.0000000026646,-75.96490144729614,2590.69921875,274.7702788769074,9.31e+03
1552.5000000027146,-93.94507849216461,2598.48486328125,275.59602649886415,9.31e+03
1560.0000000027646,-81.66765766963363,2596.570068359375,275.3929428174905,9.31e+03
1567.5000000028147,-80.93958687782288,2604.822265625,276.2681731520706,9.3e+03
1575.0000000028647,-81.20639252662659,2601.77783203125,275.9452796793268,9.29e+03
1582.5000000029147,-76.00181770324707,2606.322265625,276.42726356879376,9.28e+03
1590.0000000029647,-74.4575983285904,2595.34716796875,275.2632416623202,9.27e+03
1597.5000000030147,-67.57524299621582,2621.7255859375,278.060944000418,9.25e+03
1605.0000000030648,-80.36394691467285,2646.403076171875,280.678245470464,9.24e+03
1612.5000000031148,-89.12160921096802,2662.04833984375,282.3375864819991,9.23e+03
1620.0000000031648,-84.96690392494202,2651.642822265625,281.23397439684953,9.23e+03
1627.5000000032148,-98.43025422096252,2675.2001953125,283.7324759268034,9.21e+03
1635.0000000032649,-93.82023644447327,2671.3359375,283.32263166965913,9.21e+03
1642.5000000033149,-78.34840035438538,2664.36865234375,282.58367947036777,9.19e+03
1650.000000003365,-82.27581560611725,2673.06103515625,283.5055960063398,9.18e+03
1657.500000003415,-81.26529538631439,2643.5078125,280.37117300107593,9.16e+03
1665.000000003465,-87.96869015693665,2605.32958984375,276.32198009965373,9.15e+03
1672.500000003515,-78.1296991109848,2584.2392578125,274.08513362519915,9.14e+03
1680.000000003565,-87.60860800743103,2601.24267578125,275.8885208587771,9.13e+03
1687.500000003615,-92.72922837734222,2624.30126953125,278.33412171793583,9.13e+03
1695.000000003665,-68.08958226442337,2593.12744140625,275.0278168464271,9.11e+03
1702.500000003715,-70.62362909317017,2590.043701171875,274.7007545004586,9.1e+03
1710.000000003765,-66.45616388320923,2594.1123046875,275.1322717196467,9.09e+03
1717.500000003815,-85.22236323356628,2634.4404296875,279.40948386092305,9.08e+03
1725.0000000038651,-87.61202192306519,2649.37646484375,280.9936038990564,9.06e+03
1732.5000000039151,-82.47156023979187,2628.02294921875,278.7288440995322,9.05e+03
1740.0000000039652,-64.52255272865295,2604.71337890625,276.25662459642956,9.04e+03
1747.5000000040152,-68.91194939613342,2634.2705078125,279.3914618996536,9.03e+03
1755.0000000040652,-83.22258114814758,2659.961669921875,282.1162736903759,9.01e+03
1762.5000000041152,-66.60831153392792,2656.37109375,281.7354561840693,9e+03
1770.0000000041653,-67.01207947731018,2634.296875,279.39425841088513,8.99e+03
1777.5000000042153,-70.08681309223175,2646.69384765625,280.7090847748776,8.98e+03
1785.0000000042653,-71.80816531181335,2670.48583984375,283.232470076067,8.97e+03
1792.5000000043153,-82.19091498851776,2680.534912109375,284.29827747234674,8.96e+03
1800.0000000043653,-67.68652963638306,2658.43505859375,281.9543608687987,8.93e+03
1807.5000000044154,-72.70273768901825,2676.359130859375,283.8553929528752,8.91e+03
1815.0000000044654,-65.83136785030365,2704.4736328125,286.83722484066675,8.89e+03
