#"Time (ps)","Potential Energy (kJ/mole)","Kinetic Energy (kJ/mole)","Temperature (K)","Speed (ns/day)"
7.499999999999936,-2061.237762451172,2724.8076171875,288.9938528725744,0
15.00000000000019,-1817.9271545410156,2496.9619140625,264.8284743000792,5.62e+03
22.500000000000473,-1621.6700820922852,2296.66552734375,243.58498387925675,5.71e+03
30.000000000000757,-1488.2057495117188,2174.93017578125,230.6736986725759,5.92e+03
37.50000000000104,-1441.7560119628906,2138.74951171875,226.8363673905595,6.09e+03
45.00000000000132,-1409.833194732666,2120.23095703125,224.87228433566256,6.18e+03
52.500000000001606,-1362.4366989135742,2099.16552734375,222.63807901070436,6.69e+03
60.00000000000189,-1329.743091583252,2093.509033203125,222.0381496706882,7.24e+03
67.50000000000217,-1280.2946853637695,2041.69287109375,216.54251312203724,7.61e+03
75.00000000000246,-1252.8630714416504,2039.00927734375,216.2578904233684,7.4e+03
82.50000000000274,-1203.8594799041748,2017.162353515625,213.9407996127444,7.37e+03
90.00000000000303,-1159.6118144989014,1975.90673828125,209.56521759953907,7.31e+03
97.50000000000331,-1138.9854164123535,1994.5579833984375,211.5433738382721,7.26e+03
105.0000000000036,-1096.059700012207,1983.624755859375,210.38379268805957,7.28e+03
112.50000000000388,-1057.6073112487793,1951.9388427734375,207.02317594332868,7.33e+03
120.00000000000416,-1042.1816806793213,1957.31005859375,207.59284858543776,7.39e+03
127.50000000000445,-1034.9439239501953,1982.258544921875,210.2388919764738,7.47e+03
134.9999999999981,-1019.9113178253174,1998.197509765625,211.9293830158927,7.57e+03
142.49999999999127,-987.7981486320496,1998.9674072265625,212.01103855448915,7.65e+03
149.99999999998445,-967.9817199707031,1982.822021484375,210.29865445723502,7.67e+03
157.49999999997763,-956.621283531189,1999.16162109375,212.03163693119865,7.73e+03
164.9999999999708,-919.545802116394,1998.12841796875,211.92205512072135,7.82e+03
172.499999999964,-908.5859794616699,1962.660400390625,208.16030732282198,7.9e+03
179.99999999995717,-889.7431201934814,1940.01025390625,205.75802649412842,7.97e+03
187.49999999995035,-873.6898365020752,1910.471923828125,202.62518299983788,8.05e+03
194.99999999994353,-876.9726667404175,1947.8927001953125,206.5940409374118,8.14e+03
202.4999999999367,-849.5800414085388,1941.830810546875,205.95111523721187,8.24e+03
209.99999999992988,-835.1098356246948,1972.3970947265625,209.19298382909568,8.32e+03
217.49999999992306,-815.729651927948,1984.1220703125,210.43653799711964,8.38e+03
224.99999999991624,-802.9828653335571,1978.7899169921875,209.8710083346127,8.41e+03
232.49999999990942,-771.283766746521,1949.513916015625,206.76598753771293,8.48e+03
239.9999999999026,-746.0261106491089,1943.381591796875,206.11559152741788,8.56e+03
247.49999999989578,-749.1867966651917,1948.8277587890625,206.69321351163865,8.63e+03
254.99999999988896,-746.1605100631714,1975.970947265625,209.57202762226012,8.7e+03
262.49999999988216,-739.8452632427216,1978.24267578125,209.8129677797486,8.76e+03
269.99999999987534,-722.437361240387,1960.515380859375,207.93280595541802,8.8e+03
277.4999999998685,-684.0919723510742,1949.9285888671875,206.8099678555522,8.86e+03
284.9999999998617,-699.1890678405762,1985.0546875,210.53545163512135,8.9e+03
292.4999999998549,-671.8828554153442,1983.421875,210.3622750877508,8.97e+03
299.99999999984806,-658.0414056777954,1981.1142578125,210.11752856775286,8.98e+03
307.49999999984124,-655.3697957992554,2022.398681640625,214.49616602841476,9.02e+03
314.9999999998344,-642.5412111282349,2020.268798828125,214.27027006560664,9.07e+03
322.4999999998276,-628.1111102104187,2024.4078369140625,214.70925759488992,9.13e+03
329.9999999998208,-603.765552520752,2010.8006591796875,213.26607654409784,9.17e+03
337.49999999981395,-587.7685241699219,2037.9599609375,216.14659963380524,9.2e+03
344.99999999980713,-576.4804534912109,2059.96728515625,218.48070255442065,9.25e+03
352.4999999998003,-566.7134914398193,2058.3212890625,218.30612775143436,9.29e+03
359.9999999997935,-544.2316770553589,2060.799072265625,218.56892212632425,9.34e+03
367.49999999978667,-542.0074934959412,2055.68310546875,218.02632126655305,9.37e+03
374.99999999977985,-522.7939281463623,2026.6240234375,214.94430695325659,9.37e+03
382.499999999773,-501.0691261291504,2014.16357421875,213.62274824741058,9.37e+03
389.9999999997662,-512.4973573684692,2029.3310546875,215.2314154396867,9.4e+03
397.4999999997594,-493.55792570114136,2030.81298828125,215.38858972834387,9.41e+03
404.99999999975256,-496.5873417854309,2047.7510986328125,217.18505041789942,9.43e+03
412.49999999974574,-484.950758934021,2059.50634765625,218.43181539511508,9.45e+03
419.9999999997389,-468.87057065963745,2063.091064453125,218.81201145448136,9.47e+03
427.4999999997321,-450.1858606338501,2048.776123046875,217.29376479202253,9.48e+03
434.9999999997253,-450.4564833641052,2066.93701171875,219.21991368993716,9.49e+03
442.49999999971845,-435.5032739639282,2072.60888671875,219.82147432817166,9.49e+03
449.99999999971163,-414.97068309783936,2075.6201171875,220.14084626825368,9.46e+03
457.4999999997048,-409.5051283836365,2092.47216796875,221.9281794558732,9.46e+03
464.999999999698,-384.47886180877686,2092.400146484375,221.9205408372317,9.48e+03
472.49999999969117,-392.15132427215576,2100.800048828125,222.81143681343252,9.48e+03
479.99999999968435,-379.2243847846985,2087.51220703125,221.40212462088815,9.47e+03
487.4999999996775,-361.75958585739136,2097.732421875,222.4860834465499,9.45e+03
494.9999999996707,-357.09020709991455,2114.79443359375,224.29568514953107,9.44e+03
502.4999999996639,-351.56947898864746,2130.218994140625,225.93161832631395,9.43e+03
509.99999999965706,-346.0618200302124,2110.1201171875,223.79992585288684,9.42e+03
517.4999999996503,-323.4627103805542,2099.64697265625,222.68914123430108,9.41e+03
524.9999999996435,-328.7343907356262,2118.069091796875,224.64299630830516,9.38e+03
532.4999999996367,-318.3683042526245,2126.6845703125,225.55675635318545,9.37e+03
539.9999999996298,-315.4654703140259,2143.98876953125,227.39204452970006,9.37e+03
547.499999999623,-299.1579780578613,2160.354736328125,229.12782351489514,9.38e+03
554.9999999996162,-307.1909670829773,2197.435546875,233.06062458311894,9.38e+03
562.4999999996094,-302.2485146522522,2210.25390625,234.4201433395698,9.38e+03
569.9999999996026,-280.7262854576111,2197.814453125,233.10081148525995,9.37e+03
577.4999999995957,-293.85599088668823,2241.533203125,237.73763425600438,9.37e+03
584.9999999995889,-281.6543245315552,2233.52734375,236.8885305865404,9.36e+03
592.4999999995821,-280.11807560920715,2249.709228515625,238.6047857803603,9.34e+03
599.9999999995753,-272.8358693122864,2264.88720703125,240.2145663984045,9.3e+03
607.4999999995684,-277.0416078567505,2269.1767578125,240.66951734596736,9.29e+03
614.9999999995616,-255.2464952468872,2273.23388671875,241.09981756489734,9.29e+03
622.4999999995548,-249.27591848373413,2289.38525390625,242.81283605590303,9.28e+03
629.999999999548,-256.3130249977112,2341.80810546875,248.37281825650015,9.28e+03
637.4999999995412,-237.13409662246704,2353.83251953125,249.64813095253697,9.26e+03
644.9999999995343,-237.56066346168518,2358.027587890625,250.09306106818707,9.25e+03
652.4999999995275,-227.55721735954285,2362.74853515625,250.5937660467314,9.24e+03
659.9999999995207,-225.47532033920288,2371.822265625,251.55612842106956,9.23e+03
667.4999999995139,-221.54315853118896,2375.125732421875,251.90649502730028,9.21e+03
674.999999999507,-200.1405327320099,2354.61962890625,249.7316119915206,9.16e+03
682.4999999995002,-232.9446783065796,2395.2822265625,254.04429839564057,9.15e+03
689.9999999994934,-215.05878686904907,2380.76123046875,252.5041975157803,9.14e+03
697.4999999994866,-215.08195066452026,2414.356201171875,256.06728944175575,9.12e+03
704.9999999994798,-226.37388944625854,2459.341796875,260.838474219723,9.1e+03
712.499999999473,-209.32962036132812,2438.116943359375,258.5873603592634,9.08e+03
719.9999999994661,-202.24856400489807,2447.19384765625,259.5500593506943,9.06e+03
727.4999999994593,-200.11846899986267,2423.7978515625,257.0686735052219,9.05e+03
734.9999999994525,-208.88684797286987,2432.67626953125,258.0103209815492,9.04e+03
742.4999999994457,-204.78276026248932,2458.7236328125,260.7729115675187,9.05e+03
749.9999999994388,-202.40497636795044,2449.90625,259.8377374968197,9.03e+03
757.499999999432,-197.37699699401855,2459.0234375,260.8047089359653,9.03e+03
764.9999999994252,-184.66782093048096,2434.483154296875,258.20195968177194,9.02e+03
772.4999999994184,-186.84869718551636,2421.50439453125,256.8254288153297,9.01e+03
779.9999999994116,-185.7103304862976,2439.189453125,258.70111104296547,8.99e+03
787.4999999994047,-163.0246615409851,2417.7109375,256.42309370871436,8.97e+03
794.9999999993979,-172.09272742271423,2445.65185546875,259.3865152308988,8.96e+03
802.4999999993911,-167.87208366394043,2450.80517578125,259.9330778149146,8.94e+03
809.9999999993843,-163.041588306427,2440.60498046875,258.8512422662989,8.92e+03
817.4999999993775,-180.6098668575287,2471.553466796875,262.1336473242277,8.89e+03
824.9999999993706,-162.34454250335693,2449.8779296875,259.83473383660817,8.85e+03
832.4999999993638,-163.41357469558716,2427.135498046875,257.42266521860444,8.85e+03
839.999999999357,-160.55714774131775,2422.168701171875,256.89588536218906,8.85e+03
847.4999999993502,-152.6817774772644,2438.33203125,258.61017264069784,8.85e+03
854.9999999993433,-146.6252794265747,2451.0556640625,259.9596446716135,8.85e+03
862.4999999993365,-147.37834644317627,2465.705322265625,261.51339149053837,8.85e+03
869.9999999993297,-116.20654726028442,2448.26171875,259.66331805556854,8.85e+03
877.4999999993229,-124.59554076194763,2461.8955078125,261.1093215112146,8.86e+03
884.9999999993161,-121.9609043598175,2490.93408203125,264.1891607602199,8.87e+03
892.4999999993092,-120.23602056503296,2492.81005859375,264.38812735561396,8.88e+03
899.9999999993024,-124.69169020652771,2504.0087890625,265.57586782031,8.88e+03
907.4999999992956,-116.62893486022949,2493.72509765625,264.4851766527947,8.88e+03
914.9999999992888,-95.94377326965332,2493.39404296875,264.45006490066635,8.87e+03
922.499999999282,-95.94305610656738,2527.979248046875,268.1181813595568,8.87e+03
929.9999999992751,-105.46620631217957,2538.748779296875,269.260400835874,8.86e+03
937.4999999992683,-102.23926079273224,2529.7802734375,268.3091986128391,8.86e+03
944.9999999992615,-102.6361436843872,2539.8857421875,269.38098743591956,8.86e+03
952.4999999992547,-89.99972915649414,2544.24072265625,269.84287787431606,8.86e+03
959.9999999992478,-105.7785370349884,2575.640625,273.17316024027235,8.86e+03
967.499999999241,-95.12926483154297,2557.755126953125,271.276219348553,8.85e+03
974.9999999992342,-93.31630349159241,2573.15869140625,272.9099256737997,8.83e+03
982.4999999992274,-79.1625405550003,2577.465576171875,273.366715068561,8.82e+03
989.9999999992206,-90.85982978343964,2611.528076171875,276.97939328165,8.82e+03
997.4999999992137,-86.6600593328476,2602.3662109375,276.0076833095844,8.83e+03
1004.9999999992069,-75.37425804138184,2573.21728515625,272.916140143203,8.83e+03
1012.4999999992001,-73.84364724159241,2575.848388671875,273.19519571303135,8.83e+03
1019.9999999991933,-73.73473930358887,2583.10498046875,273.96483185500125,8.84e+03
1027.499999999213,-68.60702443122864,2582.8251953125,273.9351577636008,8.84e+03
1034.999999999263,-75.36230182647705,2596.95751953125,275.4340359964195,8.85e+03
1042.499999999313,-41.93422031402588,2562.509765625,271.78049764700415,8.86e+03
1049.9999999993631,-65.26964116096497,2639.06298828125,279.8997537095944,8.87e+03
1057.4999999994131,-47.09702229499817,2616.833251953125,277.5420616988692,8.88e+03
1064.9999999994632,-52.5840380191803,2643.03564453125,280.32109473513475,8.89e+03
1072.4999999995132,-38.847474217414856,2653.0126953125,281.37926351277304,8.88e+03
1079.9999999995632,-51.52521049976349,2668.648681640625,283.0376205666526,8.87e+03
1087.4999999996132,-66.65924000740051,2675.21923828125,283.73449562935946,8.87e+03
1094.9999999996633,-55.8554562330246,2653.078857421875,281.3862806844742,8.87e+03
1102.4999999997133,-60.6798141002655,2657.141357421875,281.81715056309946,8.87e+03
1109.9999999997633,-46.37685835361481,2645.206298828125,280.5513149329026,8.87e+03
1117.4999999998133,-50.273380279541016,2616.810302734375,277.5396276983529,8.87e+03
1124.9999999998633,-46.51422119140625,2636.68701171875,279.6477569752926,8.85e+03
1132.4999999999134,-52.4224112033844,2651.37255859375,281.2053101567271,8.84e+03
1139.9999999999634,-47.31716430187225,2646.24609375,280.6615958711878,8.83e+03
1147.5000000000134,-42.792221546173096,2674.252197265625,283.6319309905834,8.83e+03
1155.0000000000634,-59.85728335380554,2685.52734375,284.82777615912613,8.82e+03
1162.5000000001135,-50.25789439678192,2685.4833984375,284.82311530707364,8.82e+03
1170.0000000001635,-60.10483276844025,2703.71435546875,286.7566956746497,8.8e+03
1177.5000000002135,-47.53608810901642,2720.627197265625,288.55047637427504,8.79e+03
1185.0000000002635,-47.366831958293915,2738.50439453125,290.446536882829,8.79e+03
1192.5000000003135,-61.585670471191406,2755.111328125,292.2078728734449,8.78e+03
1200.0000000003636,-50.29357874393463,2748.9990234375,291.5596001401959,8.77e+03
1207.5000000004136,-31.606903731822968,2719.57373046875,288.4387453931291,8.77e+03
1215.0000000004636,-33.11154520511627,2729.806640625,289.52405068716166,8.77e+03
1222.5000000005136,-47.80156147480011,2717.47119140625,288.21574951604254,8.77e+03
1230.0000000005637,-51.49494889378548,2746.654052734375,291.3108918959534,8.77e+03
1237.5000000006137,-34.74677228927612,2729.18505859375,289.4581255242422,8.77e+03
1245.0000000006637,-25.727012634277344,2737.40966796875,290.3304298794783,8.77e+03
1252.5000000007137,-40.70019155740738,2750.958984375,291.7674741417346,8.76e+03
1260.0000000007637,-40.69130885601044,2754.563720703125,292.149793478147,8.75e+03
1267.5000000008138,-25.151408195495605,2736.1259765625,290.1942812123021,8.74e+03
1275.0000000008638,-38.517444014549255,2753.57421875,292.0448466260996,8.73e+03
1282.5000000009138,-31.91436731815338,2752.301513671875,291.9098631719366,8.72e+03
1290.0000000009638,-27.33598440885544,2730.01513671875,289.5461638407882,8.72e+03
1297.5000000010139,-14.949824571609497,2688.66552734375,285.16061278291517,8.72e+03
1305.0000000010639,-34.1705117225647,2712.3173828125,287.66913514478176,8.72e+03
1312.500000001114,-39.5337860584259,2705.968505859375,286.99577149131716,8.72e+03
1320.000000001164,-32.19226264953613,2698.0888671875,286.1600548246927,8.72e+03
1327.500000001214,-30.462121844291687,2724.7392578125,288.98660265827067,8.73e+03
1335.000000001264,-28.325870990753174,2752.90283203125,291.97363916418743,8.73e+03
1342.500000001314,-32.69991481304169,2748.91357421875,291.55053737231617,8.73e+03
1350.000000001364,-26.582811653614044,2727.892822265625,289.321070580278,8.72e+03
1357.500000001414,-19.460670948028564,2713.28955078125,287.7722435496307,8.72e+03
1365.000000001464,-33.641897082328796,2750.425048828125,291.71084478929754,8.72e+03
1372.500000001514,-18.549755096435547,2761.4248046875,292.87748195164505,8.73e+03
1380.000000001564,-32.76837909221649,2766.283935546875,293.392842720532,8.73e+03
1387.5000000016141,-34.98708641529083,2792.7568359375,296.2005658905426,8.74e+03
1395.0000000016641,-19.97745132446289,2754.95263671875,292.19104201881106,8.74e+03
1402.5000000017142,-29.58998715877533,2754.0458984375,292.0948731047958,8.73e+03
1410.0000000017642,-30.536340475082397,2787.17041015625,295.6080680201877,8.73e+03
1417.5000000018142,-27.765820503234863,2780.9755859375,294.9510432425292,8.72e+03
1425.0000000018642,-10.262637853622437,2759.89453125,292.71518072573014,8.71e+03
1432.5000000019143,-20.569427013397217,2774.640625,294.2791555255479,8.7e+03
1440.0000000019643,-15.153680205345154,2756.15234375,292.3182832798426,8.7e+03
1447.5000000020143,-27.38244378566742,2754.52197265625,292.1453656686972,8.71e+03
1455.0000000020643,-22.41826295852661,2758.33447265625,292.5497204778686,8.71e+03
1462.5000000021143,-28.077878952026367,2779.6083984375,294.8060389564534,8.71e+03
1470.0000000021644,-25.658462643623352,2780.00537109375,294.84814198666044,8.71e+03
1477.5000000022144,-22.21194314956665,2749.98095703125,291.6637442899454,8.72e+03
1485.0000000022644,-13.183681786060333,2734.069091796875,289.9761274426255,8.72e+03
1492.5000000023144,-7.020889520645142,2728.13818359375,289.3470936709041,8.71e+03
1500.0000000023645,-13.028350234031677,2734.463134765625,290.01791974936236,8.7e+03
1507.5000000024145,3.2980780601501465,2737.75,290.36652558926215,8.7e+03
1515.0000000024645,-8.136346817016602,2749.173828125,291.57813997391565,8.71e+03
1522.5000000025145,-18.547773838043213,2761.26904296875,292.8609618204814,8.71e+03
1530.0000000025645,-33.075900822877884,2783.716796875,295.24177683611117,8.72e+03
1537.5000000026146,-34.86643028259277,2812.13427734375,298.25574270944213,8.72e+03
1545.0000000026646,-22.45203971862793,2800.09814453125,296.9791871195246,8.72e+03
1552.5000000027146,-19.937375843524933,2800.111083984375,296.98055948151784,8.72e+03
1560.0000000027646,-30.543752908706665,2802.79296875,297.2650009248291,8.71e+03
1567.5000000028147,-22.738350868225098,2803.76123046875,297.3676950317178,8.71e+03
1575.0000000028647,-30.424015402793884,2796.05517578125,296.55038873070043,8.7e+03
1582.5000000029147,-20.94625151157379,2773.240234375,294.1306297068103,8.7e+03
1590.0000000029647,-5.4093915820121765,2756.576171875,292.36323460852617,8.7e+03
1597.5000000030147,-9.189946413040161,2753.59375,292.0469181159007,8.71e+03
1605.0000000030648,-6.325923442840576,2759.50732421875,292.67411344042364,8.71e+03
1612.5000000031148,-16.225814759731293,2774.562744140625,294.2708954599661,8.71e+03
1620.0000000031648,-15.893708944320679,2769.0107421875,293.6820485903857,8.71e+03
1627.5000000032148,-17.3510639667511,2752.45947265625,291.9266163457028,8.72e+03
1635.0000000032649,-17.946935653686523,2738.81884765625,290.4798878686264,8.72e+03
1642.5000000033149,-32.191778898239136,2744.87158203125,291.12184255798206,8.72e+03
1650.000000003365,-14.591267943382263,2730.37646484375,289.5844864021082,8.72e+03
1657.500000003415,-24.132327020168304,2755.391845703125,292.23762464571297,8.72e+03
1665.000000003465,-28.767799615859985,2732.34130859375,289.79287827609716,8.73e+03
1672.500000003515,-25.789383113384247,2723.0009765625,288.8022400659742,8.73e+03
1680.000000003565,-29.29998928308487,2719.18603515625,288.3976263205776,8.73e+03
1687.500000003615,-32.561773896217346,2759.683837890625,292.69283452950094,8.73e+03
1695.000000003665,-40.51454037427902,2750.2099609375,291.68803250786306,8.73e+03
1702.500000003715,-32.28344106674194,2759.9443359375,292.72046302472296,8.73e+03
1710.000000003765,-28.57334077358246,2762.2099609375,292.96075584164856,8.73e+03
1717.500000003815,-20.93268495798111,2747.610107421875,291.4122913217164,8.72e+03
1725.0000000038651,-14.419410645961761,2746.04541015625,291.24633909502717,8.71e+03
1732.5000000039151,-24.076774656772614,2750.10791015625,291.67720897365245,8.71e+03
1740.0000000039652,-23.905085265636444,2738.328369140625,290.4278675809967,8.7e+03
1747.5000000040152,-18.096485316753387,2751.78076171875,291.8546320751152,8.7e+03
1755.0000000040652,-13.814647674560547,2744.202392578125,291.0508681386724,8.7e+03
1762.5000000041152,-11.731539189815521,2758.164794921875,292.5317244102217,8.7e+03
1770.0000000041653,-21.181047700345516,2762.19140625,292.9587879263375,8.7e+03
1777.5000000042153,-24.028030455112457,2774.737548828125,294.2894352936858,8.71e+03
1785.0000000042653,-20.77932560443878,2769.91455078125,293.7779067809308,8.72e+03
1792.5000000043153,-17.45161521434784,2763.41748046875,293.0888256986005,8.72e+03
1800.0000000043653,-11.095284938812256,2743.884521484375,291.0171546421598,8.72e+03
1807.5000000044154,-15.585037797689438,2740.5498046875,290.6634736522474,8.73e+03
1815.0000000044654,-4.869802266359329,2735.417236328125,290.1191120261453,8.74e+03
